# These are calculated in BinaryResidenceTime_AGN_Disk-ChangeGas.ipynb
# asusming m1=m2=1 Msun
# GW_frequency roughly in the LISA range, from 10^-4 to 1 Hz
# the gw_fdot assumes pure GW-driven inspiral (Peters 1964)
# the drag_fdot assumes no-feedback and the drag is calculated using a
# temperature of 1e5 for the RSG envelope as representative
#
#
# GW_frequency	gw_fdot	drag_fdot
1.000000000000000048e-04 9.914944130051235472e-22 1.479447906132601266e-11
2.000000000000000096e-04 1.259119419379940295e-20 2.348477162527041055e-11
2.999999999999999737e-04 5.568457020673409528e-20 3.077375656594434530e-11
4.000000000000000192e-04 1.598981992701844572e-19 3.727975118318717080e-11
5.000000000000000104e-04 3.623934063707417350e-19 4.325931920293608630e-11
5.999999999999999474e-04 7.071499625965339331e-19 4.885029354579334823e-11
6.999999999999999929e-04 1.244466140269173748e-18 5.413752170592556072e-11
8.000000000000000383e-04 2.030580557834492639e-18 5.917791624530403770e-11
8.999999999999999754e-04 3.127371489376891733e-18 6.401199320735815362e-11
1.000000000000000021e-03 4.602109395994036354e-18 6.866988881016886170e-11
1.100000000000000066e-03 6.527248046133339052e-18 7.317478711463040024e-11
1.199999999999999895e-03 8.980244756200086469e-18 7.754500736354770126e-11
1.299999999999999940e-03 1.204340329674171168e-17 8.179534321575867413e-11
1.399999999999999986e-03 1.580373488161673016e-17 8.593795890693745763e-11
1.500000000000000031e-03 2.035283387865627272e-17 8.998301007026593139e-11
1.600000000000000077e-03 2.578676570890117416e-17 9.393908650108162926e-11
1.699999999999999905e-03 3.220596498238909593e-17 9.781353584776290950e-11
1.799999999999999951e-03 3.971514233705785329e-17 1.016127053559415847e-10
1.899999999999999996e-03 4.842319875612734457e-17 1.053421258002247225e-10
2.000000000000000042e-03 5.844314637178934553e-17 1.090066537358013696e-10
2.099999999999999870e-03 6.989203494116323206e-17 1.126105831206170664e-10
2.200000000000000133e-03 8.289088331911548680e-17 1.161577340433133352e-10
2.299999999999999961e-03 9.756461536194936028e-17 1.196515240766495502e-10
2.399999999999999790e-03 1.140419997833913778e-16 1.230950262637773812e-10
2.500000000000000052e-03 1.324555935549290123e-16 1.264910166923975668e-10
2.599999999999999881e-03 1.529416885002005807e-16 1.298420138667952547e-10
2.700000000000000143e-03 1.756402607806185491e-16 1.331503115519340719e-10
2.799999999999999972e-03 2.006949230088393583e-16 1.364180063728724230e-10
2.899999999999999800e-03 2.282528787597058839e-16 1.396470211638012612e-10
3.000000000000000062e-03 2.584648792761038336e-16 1.428391248448052525e-10
3.099999999999999891e-03 2.914851821907823606e-16 1.459959494408844174e-10
3.200000000000000153e-03 3.274715121053376698e-16 1.491190047327486832e-10
3.299999999999999982e-03 3.665850228848457589e-16 1.522096909324096177e-10
3.399999999999999811e-03 4.089902615415635506e-16 1.552693097014680351e-10
3.500000000000000073e-03 4.548551335940455991e-16 1.582990737710103832e-10
3.599999999999999901e-03 5.043508697992993320e-16 1.613001153753563606e-10
3.700000000000000164e-03 5.576519941654621109e-16 1.642734936747010969e-10
3.799999999999999992e-03 6.149362931611339377e-16 1.672202013118431344e-10
3.899999999999999821e-03 6.763847860451448373e-16 1.701411702240779386e-10
4.000000000000000083e-03 7.421816962472787775e-16 1.730372768117443194e-10
4.100000000000000346e-03 8.125144237364800635e-16 1.759093465488968277e-10
4.199999999999999740e-03 8.875735183184053257e-16 1.787581581084198761e-10
4.300000000000000003e-03 9.675526538089567322e-16 1.815844470630309265e-10
4.400000000000000265e-03 1.052648603034697526e-15 1.843889092145979280e-10
4.499999999999999660e-03 1.143061213614902303e-15 1.871722035966767540e-10
4.599999999999999922e-03 1.238993384483449368e-15 1.899349551888718112e-10
4.700000000000000185e-03 1.340651043111866957e-15 1.926777573763264059e-10
4.799999999999999580e-03 1.448243123397701298e-15 1.954011741831733671e-10
4.899999999999999842e-03 1.561981544184911353e-15 1.981057423049859500e-10
5.000000000000000104e-03 1.682081188385332178e-15 2.007919729620389825e-10
5.100000000000000366e-03 1.808759882672379372e-15 2.034603535924391669e-10
5.199999999999999761e-03 1.942238377720088720e-15 2.061113494018203239e-10
5.300000000000000024e-03 2.082740328962374113e-15 2.087454047842736808e-10
5.400000000000000286e-03 2.230492277848982269e-15 2.113629446274336594e-10
5.499999999999999681e-03 2.385723633576142529e-15 2.139643755131295270e-10
5.599999999999999943e-03 2.548666655271267047e-15 2.165500868237021912e-10
5.700000000000000205e-03 2.719556434612284538e-15 2.191204517629460543e-10
5.799999999999999600e-03 2.898630878863415684e-15 2.216758282996435655e-10
5.899999999999999863e-03 3.086130694310226129e-15 2.242165600407918759e-10
6.000000000000000125e-03 3.282299370077766523e-15 2.267429770408607996e-10
6.100000000000000387e-03 3.487383162316605323e-15 2.292553965527536959e-10
6.199999999999999782e-03 3.701631078742321389e-15 2.317541237255559520e-10
6.300000000000000044e-03 3.925294863514885965e-15 2.342394522536373870e-10
6.400000000000000307e-03 4.158628982445039348e-15 2.367116649812161508e-10
6.499999999999999702e-03 4.401890608515508249e-15 2.391710344660878171e-10
6.599999999999999964e-03 4.655339607705524399e-15 2.416178235058615073e-10
6.700000000000000226e-03 4.919238525107655166e-15 2.440522856297265975e-10
6.799999999999999621e-03 5.193852571326615659e-15 2.464746655584865271e-10
6.899999999999999883e-03 5.479449609150147915e-15 2.488851996353441229e-10
7.000000000000000146e-03 5.776300140482589190e-15 2.512841162296934850e-10
7.100000000000000408e-03 6.084677293532223897e-15 2.536716361159706207e-10
7.199999999999999803e-03 6.404856810243871902e-15 2.560479728294326145e-10
7.300000000000000065e-03 6.737117033968690435e-15 2.584133330005701544e-10
7.400000000000000328e-03 7.081738897363349151e-15 2.607679166697119264e-10
7.499999999999999722e-03 7.439005910511336589e-15 2.631119175832445053e-10
7.599999999999999985e-03 7.809204149259273818e-15 2.654455234727538621e-10
7.700000000000000247e-03 8.192622243761535496e-15 2.677689163182823664e-10
7.799999999999999642e-03 8.589551367226786176e-15 2.700822725968017961e-10
7.900000000000000772e-03 9.000285224860244842e-15 2.723857635169093452e-10
8.000000000000000167e-03 9.425120042995783297e-15 2.746795552406754468e-10
8.099999999999999561e-03 9.864354558412321394e-15 2.769638090934991335e-10
8.200000000000000691e-03 1.031829000782899077e-14 2.792386817627573739e-10
8.300000000000000086e-03 1.078723011757396157e-14 2.815043254859774434e-10
8.399999999999999481e-03 1.127148109342201914e-14 2.837608882292034305e-10
8.500000000000000611e-03 1.177135161059602028e-14 2.860085138561787642e-10
8.600000000000000006e-03 1.228715280392768833e-14 2.882473422889191342e-10
8.699999999999999400e-03 1.281919825817347781e-14 2.904775096602099065e-10
8.800000000000000530e-03 1.336780399848107364e-14 2.926991484585215492e-10
8.899999999999999925e-03 1.393328848100261058e-14 2.949123876658018440e-10
8.999999999999999320e-03 1.451597258365073804e-14 2.971173528885706751e-10
9.100000000000000450e-03 1.511617959699361589e-14 2.993141664827144418e-10
9.199999999999999845e-03 1.573423521528533565e-14 3.015029476723479318e-10
9.299999999999999239e-03 1.637046752762834648e-14 3.036838126630872968e-10
9.400000000000000369e-03 1.702520700926433451e-14 3.058568747500540428e-10
9.499999999999999764e-03 1.769878651299043802e-14 3.080222444209082337e-10
9.599999999999999159e-03 1.839154126069777078e-14 3.101800294541908051e-10
9.700000000000000289e-03 1.910380883502902231e-14 3.123303350132324488e-10
9.799999999999999684e-03 1.983592917115232680e-14 3.144732637358756707e-10
9.900000000000000813e-03 2.058824454864875327e-14 3.166089158202353261e-10
1.000000000000000021e-02 2.136109958351036557e-14 3.187373891067109400e-10
1.009999999999999960e-02 2.215484122024658676e-14 3.208587791564516651e-10
1.020000000000000073e-02 2.296981872409609400e-14 3.229731793264597311e-10
1.030000000000000013e-02 2.380638367334184617e-14 3.250806808415074924e-10
1.039999999999999952e-02 2.466488995172701920e-14 3.271813728630346965e-10
1.050000000000000065e-02 2.554569374096934724e-14 3.292753425551786424e-10
1.060000000000000005e-02 2.644915351337172997e-14 3.313626751480836373e-10
1.069999999999999944e-02 2.737563002452712470e-14 3.334434539986261349e-10
1.080000000000000057e-02 2.832548630611535009e-14 3.355177606486845436e-10
1.089999999999999997e-02 2.929908765878995897e-14 3.375856748810737992e-10
1.099999999999999936e-02 3.029680164515330888e-14 3.396472747732606647e-10
1.110000000000000049e-02 3.131899808281773212e-14 3.417026367489650665e-10
1.119999999999999989e-02 3.236604903755105074e-14 3.437518356277498305e-10
1.129999999999999928e-02 3.343832881650484308e-14 3.457949446726952885e-10
1.140000000000000041e-02 3.453621396152340760e-14 3.478320356362476762e-10
1.149999999999999981e-02 3.566008324253192208e-14 3.498631788043270405e-10
1.159999999999999920e-02 3.681031765100234026e-14 3.518884430387760803e-10
1.170000000000000033e-02 3.798730039349508860e-14 3.539078958182248336e-10
1.179999999999999973e-02 3.919141688527521888e-14 3.559216032774439498e-10
1.190000000000000085e-02 4.042305474400171657e-14 3.579296302452554632e-10
1.200000000000000025e-02 4.168260378348804023e-14 3.599320402810637256e-10
1.209999999999999964e-02 4.297045600753305252e-14 3.619288957100701904e-10
1.220000000000000077e-02 4.428700560382052532e-14 3.639202576572279369e-10
1.230000000000000017e-02 4.563264893788597571e-14 3.659061860799915593e-10
1.239999999999999956e-02 4.700778454714993033e-14 3.678867397999157252e-10
1.250000000000000069e-02 4.841281313501577535e-14 3.698619765331502227e-10
1.260000000000000009e-02 4.984813756503120765e-14 3.718319529198788012e-10
1.269999999999999948e-02 5.131416285511247920e-14 3.737967245527480253e-10
1.280000000000000061e-02 5.281129617182958576e-14 3.757563460043265170e-10
1.290000000000000001e-02 5.433994682475165512e-14 3.777108708536354820e-10
1.299999999999999940e-02 5.590052626085164504e-14 3.796603517117902222e-10
1.310000000000000053e-02 5.749344805896874167e-14 3.816048402467870173e-10
1.319999999999999993e-02 5.911912792432778939e-14 3.835443872074713025e-10
1.329999999999999932e-02 6.077798368311476771e-14 3.854790424467204400e-10
1.340000000000000045e-02 6.247043527710708451e-14 3.874088549438714798e-10
1.349999999999999985e-02 6.419690475835774530e-14 3.893338728264247250e-10
1.359999999999999924e-02 6.595781628393284322e-14 3.912541433910515863e-10
1.370000000000000037e-02 6.775359611070092446e-14 3.931697131239340221e-10
1.379999999999999977e-02 6.958467259017345933e-14 3.950806277204605884e-10
1.389999999999999916e-02 7.145147616339610328e-14 3.969869321043058243e-10
1.400000000000000029e-02 7.335443935588896831e-14 3.988886704459147408e-10
1.409999999999999969e-02 7.529399677263567751e-14 4.007858861804161919e-10
1.420000000000000082e-02 7.727058509312053385e-14 4.026786220249861198e-10
1.430000000000000021e-02 7.928464306641225064e-14 4.045669199956818176e-10
1.439999999999999961e-02 8.133661150629447092e-14 4.064508214237662870e-10
1.450000000000000074e-02 8.342693328644137189e-14 4.083303669715423879e-10
1.460000000000000013e-02 8.555605333563819017e-14 4.102055966477136863e-10
1.469999999999999953e-02 8.772441863304599898e-14 4.120765498222905067e-10
1.480000000000000066e-02 8.993247820350956354e-14 4.139432652410564428e-10
1.490000000000000005e-02 9.218068311290784532e-14 4.158057810396124880e-10
1.499999999999999944e-02 9.446948646354676410e-14 4.176641347570125393e-10
1.510000000000000057e-02 9.679934338959308172e-14 4.195183633490057317e-10
1.519999999999999997e-02 9.917071105254876381e-14 4.213685032008988900e-10
1.529999999999999936e-02 1.015840486367659964e-13 4.232145901400530046e-10
1.540000000000000049e-02 1.040398173450010648e-13 4.250566594480261396e-10
1.549999999999999989e-02 1.065384803940070698e-13 4.268947458723747670e-10
1.559999999999999928e-02 1.090805030101654936e-13 4.287288836381251591e-10
1.569999999999999868e-02 1.116663524251546595e-13 4.305591064589278672e-10
1.580000000000000154e-02 1.142964978716559805e-13 4.323854475479031453e-10
1.590000000000000094e-02 1.169714105790957642e-13 4.342079396281892089e-10
1.600000000000000033e-02 1.196915637694245292e-13 4.360266149432053750e-10
1.609999999999999973e-02 1.224574326529304001e-13 4.378415052666346846e-10
1.619999999999999912e-02 1.252694944240881472e-13 4.396526419121401729e-10
1.629999999999999852e-02 1.281282282574425186e-13 4.414600557428201641e-10
1.640000000000000138e-02 1.310341153035256011e-13 4.432637771804143265e-10
1.650000000000000078e-02 1.339876386848073005e-13 4.450638362142636927e-10
1.660000000000000017e-02 1.369892834916795731e-13 4.468602624100390176e-10
1.669999999999999957e-02 1.400395367784724626e-13 4.486530849182386638e-10
1.679999999999999896e-02 1.431388875595022740e-13 4.504423324824681620e-10
1.689999999999999836e-02 1.462878268051518051e-13 4.522280334475055326e-10
1.700000000000000122e-02 1.494868474379814266e-13 4.540102157671595529e-10
1.710000000000000062e-02 1.527364443288705805e-13 4.557889070119290878e-10
1.720000000000000001e-02 1.560371142931905801e-13 4.575641343764679297e-10
1.729999999999999941e-02 1.593893560870063144e-13 4.593359246868609373e-10
1.739999999999999880e-02 1.627936704033078658e-13 4.611043044077200567e-10
1.750000000000000167e-02 1.662505598682715113e-13 4.628692996491013601e-10
1.760000000000000106e-02 1.697605290375484412e-13 4.646309361732533410e-10
1.770000000000000046e-02 1.733240843925833411e-13 4.663892394011971356e-10
1.779999999999999985e-02 1.769417343369595296e-13 4.681442344191472021e-10
1.789999999999999925e-02 1.806139891927723691e-13 4.698959459847756114e-10
1.799999999999999864e-02 1.843413611970297631e-13 4.716443985333238776e-10
1.810000000000000150e-02 1.881243644980796387e-13 4.733896161835688951e-10
1.820000000000000090e-02 1.919635151520631772e-13 4.751316227436456693e-10
1.830000000000000029e-02 1.958593311193957626e-13 4.768704417167321157e-10
1.839999999999999969e-02 1.998123322612722646e-13 4.786060963065980974e-10
1.849999999999999908e-02 2.038230403361984994e-13 4.803386094230250094e-10
1.859999999999999848e-02 2.078919789965478579e-13 4.820680036870983899e-10
1.870000000000000134e-02 2.120196737851429004e-13 4.837943014363767656e-10
1.880000000000000074e-02 2.162066521318605278e-13 4.855175247299414857e-10
1.890000000000000013e-02 2.204534433502632560e-13 4.872376953533299237e-10
1.899999999999999953e-02 2.247605786342527788e-13 4.889548348233555622e-10
1.909999999999999892e-02 2.291285910547478420e-13 4.906689643928187866e-10
1.919999999999999832e-02 2.335580155563854913e-13 4.923801050551095248e-10
1.930000000000000118e-02 2.380493889542452427e-13 4.940882775487086605e-10
1.940000000000000058e-02 2.426032499305956432e-13 4.957935023615854289e-10
1.949999999999999997e-02 2.472201390316647124e-13 4.974957997354985494e-10
1.959999999999999937e-02 2.519005986644311336e-13 4.991951896702022315e-10
1.969999999999999876e-02 2.566451730934380639e-13 5.008916919275569528e-10
1.980000000000000163e-02 2.614544084376286027e-13 5.025853260355525551e-10
1.990000000000000102e-02 2.663288526672024147e-13 5.042761112922424191e-10
2.000000000000000042e-02 2.712690556004945162e-13 5.059640667695902673e-10
2.009999999999999981e-02 2.762755689008737520e-13 5.076492113172369381e-10
2.019999999999999921e-02 2.813489460736628298e-13 5.093315635661836141e-10
2.029999999999999860e-02 2.864897424630783984e-13 5.110111419323966755e-10
2.040000000000000147e-02 2.916985152491918250e-13 5.126879646203360385e-10
2.050000000000000086e-02 2.969758234449090069e-13 5.143620496264084281e-10
2.060000000000000026e-02 3.023222278929712863e-13 5.160334147423475478e-10
2.069999999999999965e-02 3.077382912629750958e-13 5.177020775585229058e-10
2.079999999999999905e-02 3.132245780484106883e-13 5.193680554671809153e-10
2.089999999999999844e-02 3.187816545637208090e-13 5.210313656656164084e-10
2.100000000000000130e-02 3.244100889413774928e-13 5.226920251592799400e-10
2.110000000000000070e-02 3.301104511289774906e-13 5.243500507648200547e-10
2.120000000000000009e-02 3.358833128863574368e-13 5.260054591130646526e-10
2.129999999999999949e-02 3.417292477827255762e-13 5.276582666519396961e-10
2.139999999999999888e-02 3.476488311938126258e-13 5.293084896493289799e-10
2.149999999999999828e-02 3.536426402990401045e-13 5.309561441958775498e-10
2.160000000000000114e-02 3.597112540787066876e-13 5.326012462077362876e-10
2.170000000000000054e-02 3.658552533111908680e-13 5.342438114292533503e-10
2.179999999999999993e-02 3.720752205701733578e-13 5.358838554356110151e-10
2.189999999999999933e-02 3.783717402218736773e-13 5.375213936354108254e-10
2.199999999999999872e-02 3.847453984223058783e-13 5.391564412732061077e-10
2.210000000000000159e-02 3.911967831145498675e-13 5.407890134319870291e-10
2.220000000000000098e-02 3.977264840260391393e-13 5.424191250356146797e-10
2.230000000000000038e-02 4.043350926658661778e-13 5.440467908512089359e-10
2.239999999999999977e-02 4.110232023221029553e-13 5.456720254914896919e-10
2.249999999999999917e-02 4.177914080591374350e-13 5.472948434170728031e-10
2.259999999999999856e-02 4.246403067150267345e-13 5.489152589387218782e-10
2.270000000000000143e-02 4.315704968988653339e-13 5.505332862195566448e-10
2.280000000000000082e-02 4.385825789881685320e-13 5.521489392772198524e-10
2.290000000000000022e-02 4.456771551262728149e-13 5.537622319860018858e-10
2.299999999999999961e-02 4.528548292197497555e-13 5.553731780789270180e-10
2.309999999999999901e-02 4.601162069358361188e-13 5.569817911497982006e-10
2.319999999999999840e-02 4.674618956998775493e-13 5.585880846552050449e-10
2.330000000000000127e-02 4.748925046927894231e-13 5.601920719164940625e-10
2.340000000000000066e-02 4.824086448485287568e-13 5.617937661217019935e-10
2.350000000000000006e-02 4.900109288515849486e-13 5.633931803274531516e-10
2.359999999999999945e-02 4.976999711344810703e-13 5.649903274608226490e-10
2.369999999999999885e-02 5.054763878752911145e-13 5.665852203211645682e-10
2.380000000000000171e-02 5.133407969951714780e-13 5.681778715819071515e-10
2.390000000000000110e-02 5.212938181559049661e-13 5.697682937923152122e-10
2.400000000000000050e-02 5.293360727574603482e-13 5.713564993792209068e-10
2.409999999999999989e-02 5.374681839355650382e-13 5.729425006487226605e-10
2.419999999999999929e-02 5.456907765592895903e-13 5.745263097878542111e-10
2.429999999999999868e-02 5.540044772286478449e-13 5.761079388662232533e-10
2.440000000000000155e-02 5.624099142722098991e-13 5.776873998376218568e-10
2.450000000000000094e-02 5.709077177447255776e-13 5.792647045416059666e-10
2.460000000000000034e-02 5.794985194247658777e-13 5.808398647050502967e-10
2.469999999999999973e-02 5.881829528123722899e-13 5.824128919436736506e-10
2.479999999999999913e-02 5.969616531267221734e-13 5.839837977635375660e-10
2.489999999999999852e-02 6.058352573038046334e-13 5.855525935625194201e-10
2.500000000000000139e-02 6.148044039941111398e-13 5.871192906317600989e-10
2.510000000000000078e-02 6.238697335603350325e-13 5.886839001570857139e-10
2.520000000000000018e-02 6.330318880750883935e-13 5.902464332204056408e-10
2.529999999999999957e-02 6.422915113186259879e-13 5.918069008010858464e-10
2.539999999999999897e-02 6.516492487765843506e-13 5.933653137772995705e-10
2.549999999999999836e-02 6.611057476377319798e-13 5.949216829273538139e-10
2.560000000000000123e-02 6.706616567917312448e-13 5.964760189309946293e-10
2.570000000000000062e-02 6.803176268269112981e-13 5.980283323706888376e-10
2.580000000000000002e-02 6.900743100280543181e-13 5.995786337328856852e-10
2.589999999999999941e-02 6.999323603741922516e-13 6.011269334092562705e-10
2.599999999999999881e-02 7.098924335364148660e-13 6.026732416979123951e-10
2.610000000000000167e-02 7.199551868756887068e-13 6.042175688046057682e-10
